Wavelength nm.,n31,n32,n33,n61,n62,n63,n91,n92,n93,3m1,3m2,3m3,5m1,5m2,5m3
Saturation,59.8,43.6,85.6,137.9,112.2,109.9,117.9,113.7,143.8,137.9,144.3,139.3,114.2,135.34,117
Value,126.6,134,132.9,119.4,117.8,120,95.3,99.5,103.4,88.2,91.8,93.7,81,80,75
350,0.396,0.308,0.505,1.24,0.938,0.734,0.891,0.811,1.374,1.447,1.711,1.334,3.564,1.708,2.779
351,0.395,0.308,0.505,1.229,0.931,0.736,0.903,0.814,1.396,1.481,1.712,1.344,3.747,1.745,3.009
352,0.396,0.309,0.503,1.222,0.928,0.738,0.91,0.812,1.385,1.468,1.707,1.355,3.796,1.701,2.746
353,0.395,0.308,0.501,1.225,0.932,0.739,0.903,0.816,1.398,1.495,1.718,1.357,3.709,1.722,2.67
354,0.395,0.307,0.5,1.218,0.929,0.74,0.905,0.813,1.411,1.472,1.732,1.344,3.734,1.711,2.69
355,0.396,0.308,0.499,1.213,0.929,0.741,0.905,0.819,1.423,1.468,1.732,1.354,3.697,1.701,2.993
356,0.394,0.307,0.498,1.214,0.928,0.738,0.912,0.819,1.413,1.483,1.724,1.333,3.718,1.698,2.813
357,0.394,0.306,0.496,1.207,0.928,0.739,0.906,0.821,1.403,1.454,1.719,1.327,3.577,1.711,2.447
358,0.393,0.306,0.494,1.213,0.927,0.741,0.904,0.818,1.405,1.464,1.695,1.335,3.647,1.733,2.585
359,0.391,0.307,0.493,1.198,0.922,0.739,0.909,0.824,1.416,1.47,1.701,1.334,3.666,1.729,2.557
360,0.391,0.305,0.491,1.206,0.925,0.738,0.91,0.821,1.406,1.466,1.708,1.349,3.594,1.709,2.577
361,0.393,0.305,0.493,1.205,0.929,0.74,0.916,0.822,1.424,1.464,1.701,1.345,3.803,1.687,2.75
362,0.389,0.305,0.489,1.204,0.921,0.742,0.913,0.821,1.408,1.456,1.688,1.352,3.638,1.714,2.847
363,0.39,0.303,0.488,1.196,0.926,0.74,0.909,0.825,1.404,1.462,1.711,1.353,3.515,1.733,2.727
364,0.389,0.304,0.488,1.199,0.923,0.74,0.915,0.829,1.415,1.471,1.736,1.355,3.422,1.722,2.711
365,0.392,0.305,0.486,1.199,0.916,0.74,0.915,0.822,1.408,1.461,1.708,1.341,3.402,1.691,2.776
366,0.391,0.304,0.484,1.193,0.92,0.738,0.914,0.822,1.413,1.469,1.698,1.341,3.805,1.709,2.781
367,0.39,0.304,0.483,1.187,0.919,0.741,0.915,0.825,1.435,1.465,1.714,1.344,3.798,1.724,2.564
368,0.391,0.303,0.483,1.191,0.918,0.738,0.918,0.829,1.425,1.465,1.691,1.34,3.094,1.719,2.595
369,0.39,0.304,0.481,1.187,0.917,0.74,0.919,0.832,1.421,1.467,1.7,1.341,3.467,1.719,2.463
370,0.39,0.304,0.48,1.181,0.912,0.742,0.919,0.827,1.42,1.485,1.708,1.351,3.371,1.7,2.449
371,0.39,0.305,0.48,1.182,0.914,0.74,0.918,0.831,1.414,1.474,1.711,1.358,3.441,1.712,2.506
372,0.389,0.304,0.479,1.18,0.913,0.741,0.919,0.832,1.417,1.468,1.707,1.355,3.472,1.708,2.53
373,0.389,0.304,0.477,1.18,0.915,0.742,0.919,0.833,1.432,1.475,1.7,1.348,3.253,1.694,2.477
374,0.389,0.304,0.476,1.174,0.913,0.743,0.922,0.833,1.426,1.475,1.703,1.35,3.606,1.714,2.579
375,0.389,0.304,0.475,1.177,0.914,0.743,0.923,0.832,1.43,1.479,1.688,1.352,3.692,1.712,2.51
376,0.389,0.303,0.475,1.176,0.911,0.743,0.924,0.835,1.433,1.467,1.688,1.352,3.681,1.718,2.743
377,0.388,0.303,0.475,1.171,0.913,0.742,0.923,0.837,1.434,1.471,1.699,1.353,3.123,1.701,2.597
378,0.389,0.303,0.473,1.17,0.913,0.741,0.926,0.836,1.432,1.473,1.706,1.356,3.281,1.699,2.54
379,0.389,0.303,0.473,1.166,0.913,0.743,0.926,0.838,1.432,1.477,1.702,1.354,3.84,1.704,2.493
380,0.388,0.303,0.472,1.163,0.91,0.744,0.925,0.84,1.433,1.482,1.708,1.351,3.619,1.701,2.432
381,0.388,0.302,0.471,1.161,0.91,0.743,0.928,0.84,1.435,1.468,1.699,1.358,3.208,1.721,2.554
382,0.388,0.303,0.47,1.161,0.908,0.744,0.928,0.841,1.436,1.47,1.707,1.357,3.157,1.711,2.523
383,0.388,0.304,0.47,1.159,0.909,0.745,0.931,0.842,1.436,1.477,1.697,1.359,3.285,1.705,2.48
384,0.389,0.304,0.469,1.157,0.907,0.746,0.931,0.842,1.442,1.479,1.688,1.361,3.097,1.705,2.544
385,0.388,0.305,0.467,1.154,0.907,0.744,0.93,0.843,1.439,1.483,1.695,1.366,3.129,1.7,2.489
386,0.389,0.304,0.466,1.155,0.908,0.745,0.932,0.845,1.44,1.479,1.7,1.363,3.036,1.708,2.478
387,0.389,0.304,0.465,1.151,0.908,0.744,0.932,0.846,1.44,1.477,1.692,1.358,3.099,1.699,2.481
388,0.388,0.305,0.464,1.15,0.905,0.745,0.934,0.847,1.446,1.48,1.686,1.361,3.335,1.708,2.48
389,0.388,0.304,0.463,1.149,0.904,0.746,0.934,0.848,1.441,1.477,1.689,1.361,3.003,1.708,2.471
390,0.388,0.305,0.463,1.147,0.905,0.748,0.935,0.851,1.449,1.478,1.695,1.362,3.084,1.703,2.484
391,0.388,0.305,0.462,1.144,0.904,0.748,0.936,0.851,1.449,1.483,1.694,1.36,3.098,1.705,2.525
392,0.388,0.304,0.462,1.141,0.902,0.748,0.936,0.851,1.447,1.48,1.692,1.361,2.999,1.711,2.545
393,0.387,0.304,0.46,1.139,0.902,0.748,0.938,0.852,1.451,1.479,1.691,1.365,3.029,1.71,2.487
394,0.388,0.305,0.46,1.138,0.9,0.748,0.939,0.854,1.452,1.48,1.688,1.364,3.093,1.711,2.467
395,0.388,0.305,0.46,1.136,0.899,0.749,0.941,0.855,1.454,1.483,1.692,1.369,3.056,1.706,2.454
396,0.389,0.305,0.46,1.134,0.901,0.749,0.942,0.857,1.457,1.484,1.69,1.367,3.122,1.705,2.437
397,0.389,0.305,0.459,1.13,0.899,0.749,0.943,0.858,1.46,1.487,1.69,1.368,3.121,1.702,2.428
398,0.389,0.306,0.458,1.13,0.898,0.749,0.944,0.858,1.46,1.484,1.691,1.368,3.114,1.706,2.398
399,0.389,0.306,0.458,1.126,0.898,0.75,0.945,0.86,1.46,1.484,1.69,1.369,2.945,1.706,2.442
400,0.39,0.307,0.457,1.125,0.899,0.75,0.945,0.861,1.461,1.484,1.69,1.37,2.931,1.704,2.471
401,0.39,0.307,0.456,1.124,0.897,0.751,0.946,0.862,1.462,1.484,1.693,1.369,3,1.706,2.454
402,0.39,0.307,0.454,1.12,0.896,0.751,0.947,0.863,1.463,1.487,1.691,1.37,2.9,1.703,2.426
403,0.389,0.307,0.453,1.119,0.895,0.751,0.947,0.864,1.464,1.487,1.692,1.372,2.909,1.704,2.433
404,0.389,0.307,0.452,1.116,0.894,0.752,0.949,0.866,1.464,1.487,1.685,1.372,2.964,1.708,2.427
405,0.389,0.307,0.451,1.112,0.894,0.752,0.949,0.866,1.463,1.485,1.681,1.371,2.967,1.699,2.412
406,0.389,0.307,0.45,1.109,0.894,0.753,0.951,0.867,1.465,1.487,1.683,1.371,2.961,1.705,2.42
407,0.389,0.307,0.449,1.108,0.893,0.753,0.953,0.869,1.466,1.491,1.683,1.375,2.937,1.709,2.416
408,0.389,0.307,0.448,1.106,0.892,0.753,0.954,0.869,1.466,1.491,1.681,1.377,2.929,1.705,2.418
409,0.389,0.307,0.447,1.104,0.891,0.754,0.956,0.87,1.469,1.489,1.684,1.375,2.891,1.706,2.406
410,0.388,0.307,0.446,1.101,0.891,0.754,0.956,0.871,1.467,1.492,1.68,1.376,2.857,1.708,2.414
411,0.388,0.306,0.445,1.098,0.889,0.755,0.956,0.872,1.466,1.492,1.676,1.376,2.855,1.704,2.417
412,0.388,0.306,0.444,1.094,0.888,0.755,0.958,0.873,1.471,1.494,1.678,1.377,2.871,1.7,2.426
413,0.388,0.306,0.443,1.091,0.887,0.755,0.958,0.874,1.469,1.492,1.679,1.379,2.827,1.703,2.418
414,0.388,0.306,0.442,1.088,0.887,0.755,0.96,0.875,1.468,1.491,1.671,1.378,2.829,1.706,2.41
415,0.388,0.306,0.442,1.086,0.885,0.756,0.961,0.877,1.47,1.492,1.675,1.379,2.805,1.709,2.419
416,0.389,0.307,0.441,1.083,0.885,0.757,0.962,0.879,1.471,1.494,1.677,1.381,2.828,1.702,2.398
417,0.387,0.306,0.439,1.08,0.883,0.756,0.961,0.88,1.47,1.494,1.673,1.38,2.789,1.7,2.394
418,0.387,0.306,0.438,1.077,0.882,0.756,0.962,0.88,1.471,1.49,1.67,1.379,2.786,1.704,2.384
419,0.387,0.305,0.436,1.073,0.881,0.755,0.963,0.881,1.47,1.489,1.668,1.381,2.774,1.701,2.382
420,0.387,0.305,0.435,1.07,0.88,0.755,0.964,0.882,1.47,1.492,1.668,1.382,2.768,1.697,2.384
421,0.387,0.305,0.434,1.066,0.879,0.756,0.965,0.883,1.471,1.492,1.668,1.381,2.75,1.693,2.374
422,0.386,0.305,0.433,1.064,0.878,0.756,0.966,0.884,1.472,1.492,1.665,1.382,2.743,1.699,2.365
423,0.386,0.305,0.432,1.061,0.877,0.756,0.967,0.885,1.472,1.493,1.665,1.382,2.719,1.697,2.371
424,0.386,0.305,0.431,1.058,0.876,0.756,0.968,0.885,1.472,1.492,1.663,1.383,2.705,1.695,2.363
425,0.386,0.305,0.429,1.056,0.874,0.755,0.968,0.886,1.472,1.491,1.658,1.383,2.698,1.696,2.349
426,0.386,0.305,0.428,1.052,0.872,0.756,0.969,0.887,1.471,1.493,1.659,1.384,2.672,1.694,2.35
427,0.385,0.305,0.426,1.05,0.872,0.757,0.971,0.889,1.47,1.491,1.657,1.384,2.665,1.693,2.337
428,0.385,0.305,0.425,1.046,0.871,0.756,0.97,0.889,1.469,1.493,1.655,1.384,2.66,1.692,2.331
429,0.384,0.304,0.423,1.043,0.869,0.755,0.971,0.89,1.47,1.491,1.65,1.384,2.676,1.69,2.334
430,0.384,0.304,0.422,1.039,0.868,0.755,0.972,0.891,1.468,1.491,1.649,1.384,2.631,1.69,2.335
431,0.384,0.304,0.42,1.036,0.866,0.756,0.972,0.892,1.467,1.492,1.646,1.385,2.638,1.688,2.327
432,0.383,0.303,0.419,1.032,0.865,0.756,0.972,0.893,1.467,1.491,1.64,1.384,2.618,1.687,2.317
433,0.383,0.303,0.417,1.029,0.863,0.756,0.974,0.894,1.467,1.491,1.638,1.384,2.578,1.686,2.303
434,0.382,0.302,0.416,1.025,0.861,0.756,0.975,0.895,1.465,1.489,1.639,1.385,2.593,1.686,2.298
435,0.382,0.302,0.414,1.021,0.86,0.756,0.975,0.895,1.464,1.488,1.636,1.385,2.595,1.681,2.296
436,0.382,0.302,0.413,1.017,0.859,0.756,0.976,0.896,1.463,1.489,1.637,1.385,2.543,1.678,2.298
437,0.382,0.301,0.412,1.014,0.857,0.756,0.977,0.898,1.464,1.489,1.631,1.386,2.558,1.678,2.281
438,0.381,0.301,0.41,1.01,0.856,0.756,0.978,0.898,1.462,1.487,1.63,1.385,2.519,1.678,2.278
439,0.38,0.301,0.408,1.006,0.853,0.756,0.979,0.899,1.461,1.486,1.625,1.385,2.535,1.677,2.266
440,0.38,0.3,0.407,1.001,0.852,0.756,0.979,0.9,1.459,1.484,1.623,1.387,2.516,1.675,2.255
441,0.38,0.3,0.406,0.998,0.85,0.756,0.981,0.9,1.457,1.486,1.623,1.385,2.499,1.672,2.246
442,0.379,0.299,0.404,0.994,0.848,0.756,0.982,0.902,1.456,1.485,1.617,1.387,2.474,1.671,2.239
443,0.379,0.298,0.402,0.99,0.846,0.755,0.983,0.903,1.456,1.483,1.612,1.386,2.462,1.668,2.235
444,0.378,0.298,0.401,0.985,0.844,0.755,0.984,0.903,1.454,1.483,1.61,1.387,2.442,1.666,2.238
445,0.378,0.298,0.399,0.981,0.842,0.755,0.984,0.904,1.453,1.483,1.607,1.386,2.437,1.665,2.224
446,0.378,0.298,0.398,0.977,0.84,0.755,0.985,0.906,1.451,1.481,1.604,1.387,2.421,1.663,2.217
447,0.377,0.298,0.396,0.973,0.838,0.754,0.986,0.906,1.448,1.482,1.601,1.385,2.402,1.658,2.205
448,0.377,0.297,0.394,0.969,0.836,0.754,0.986,0.907,1.447,1.481,1.597,1.385,2.407,1.657,2.208
449,0.377,0.297,0.393,0.964,0.834,0.754,0.987,0.908,1.445,1.48,1.594,1.385,2.383,1.656,2.187
450,0.377,0.296,0.391,0.96,0.832,0.754,0.988,0.909,1.443,1.478,1.591,1.385,2.357,1.654,2.179
451,0.376,0.296,0.39,0.956,0.83,0.753,0.988,0.91,1.441,1.478,1.585,1.385,2.353,1.65,2.165
452,0.375,0.295,0.388,0.952,0.827,0.753,0.989,0.91,1.439,1.477,1.58,1.385,2.336,1.647,2.157
453,0.375,0.295,0.386,0.947,0.825,0.752,0.99,0.912,1.436,1.476,1.577,1.384,2.315,1.645,2.148
454,0.374,0.294,0.384,0.943,0.824,0.751,0.99,0.912,1.434,1.474,1.573,1.386,2.308,1.643,2.14
455,0.374,0.294,0.382,0.938,0.821,0.751,0.991,0.913,1.431,1.474,1.569,1.385,2.287,1.64,2.131
456,0.373,0.293,0.38,0.934,0.819,0.751,0.992,0.914,1.43,1.472,1.567,1.384,2.273,1.636,2.123
457,0.372,0.293,0.378,0.929,0.817,0.75,0.993,0.915,1.428,1.47,1.562,1.384,2.255,1.633,2.113
458,0.372,0.292,0.376,0.925,0.814,0.75,0.993,0.916,1.424,1.47,1.556,1.384,2.256,1.629,2.099
459,0.371,0.291,0.374,0.92,0.812,0.749,0.994,0.917,1.42,1.468,1.553,1.383,2.232,1.626,2.087
460,0.371,0.291,0.372,0.916,0.809,0.749,0.995,0.918,1.418,1.466,1.547,1.382,2.22,1.625,2.078
461,0.37,0.29,0.37,0.911,0.807,0.748,0.996,0.918,1.413,1.464,1.541,1.382,2.2,1.621,2.07
462,0.369,0.289,0.369,0.907,0.804,0.748,0.997,0.919,1.412,1.463,1.539,1.382,2.182,1.617,2.059
463,0.369,0.289,0.367,0.902,0.802,0.748,0.998,0.92,1.409,1.461,1.534,1.382,2.169,1.615,2.049
464,0.368,0.288,0.364,0.898,0.799,0.747,0.998,0.921,1.405,1.459,1.528,1.381,2.157,1.609,2.038
465,0.367,0.288,0.363,0.893,0.797,0.747,0.999,0.922,1.402,1.458,1.525,1.381,2.137,1.608,2.027
466,0.366,0.287,0.361,0.888,0.794,0.746,1,0.923,1.398,1.456,1.52,1.381,2.126,1.604,2.018
467,0.366,0.286,0.359,0.884,0.792,0.745,1,0.923,1.395,1.453,1.514,1.38,2.116,1.599,2.003
468,0.365,0.285,0.357,0.879,0.789,0.744,1.001,0.924,1.391,1.451,1.51,1.379,2.098,1.595,1.992
469,0.364,0.284,0.355,0.874,0.786,0.744,1.002,0.925,1.388,1.45,1.504,1.378,2.081,1.591,1.98
470,0.363,0.283,0.353,0.869,0.783,0.743,1.002,0.926,1.384,1.448,1.5,1.377,2.067,1.587,1.973
471,0.363,0.283,0.351,0.865,0.78,0.742,1.003,0.926,1.381,1.445,1.494,1.376,2.051,1.583,1.962
472,0.362,0.282,0.349,0.86,0.778,0.741,1.003,0.927,1.376,1.443,1.489,1.376,2.037,1.58,1.954
473,0.361,0.281,0.347,0.856,0.774,0.741,1.004,0.928,1.371,1.441,1.483,1.375,2.022,1.577,1.942
474,0.36,0.28,0.346,0.851,0.772,0.74,1.005,0.929,1.368,1.439,1.479,1.374,2.008,1.571,1.93
475,0.36,0.28,0.344,0.846,0.769,0.739,1.005,0.93,1.365,1.437,1.474,1.373,1.994,1.566,1.916
476,0.359,0.279,0.342,0.841,0.766,0.738,1.005,0.931,1.36,1.435,1.47,1.373,1.977,1.563,1.905
477,0.358,0.278,0.34,0.837,0.763,0.737,1.007,0.932,1.356,1.431,1.463,1.372,1.963,1.56,1.895
478,0.357,0.277,0.338,0.832,0.76,0.737,1.007,0.933,1.352,1.43,1.457,1.37,1.947,1.554,1.883
479,0.356,0.277,0.336,0.827,0.756,0.735,1.007,0.933,1.347,1.427,1.452,1.369,1.933,1.55,1.87
480,0.356,0.276,0.335,0.822,0.753,0.734,1.008,0.934,1.343,1.423,1.447,1.369,1.92,1.544,1.858
481,0.355,0.275,0.333,0.816,0.75,0.733,1.009,0.935,1.338,1.421,1.44,1.367,1.907,1.538,1.847
482,0.355,0.274,0.331,0.812,0.747,0.732,1.01,0.937,1.334,1.419,1.434,1.366,1.89,1.534,1.832
483,0.354,0.274,0.329,0.807,0.744,0.731,1.011,0.937,1.329,1.417,1.428,1.366,1.874,1.53,1.823
484,0.353,0.273,0.327,0.802,0.741,0.73,1.011,0.938,1.325,1.413,1.422,1.364,1.86,1.524,1.811
485,0.353,0.272,0.326,0.797,0.738,0.729,1.012,0.939,1.321,1.41,1.416,1.363,1.846,1.519,1.799
486,0.352,0.272,0.324,0.792,0.735,0.728,1.013,0.94,1.316,1.408,1.411,1.361,1.831,1.514,1.785
487,0.352,0.271,0.322,0.787,0.731,0.727,1.014,0.941,1.31,1.405,1.405,1.36,1.815,1.508,1.773
488,0.351,0.271,0.32,0.782,0.728,0.726,1.015,0.941,1.305,1.402,1.398,1.359,1.8,1.503,1.761
489,0.35,0.27,0.318,0.776,0.724,0.724,1.015,0.942,1.299,1.399,1.391,1.357,1.785,1.497,1.749
490,0.349,0.27,0.316,0.772,0.721,0.723,1.017,0.943,1.294,1.396,1.385,1.356,1.771,1.491,1.736
491,0.349,0.269,0.314,0.766,0.718,0.721,1.017,0.944,1.289,1.393,1.378,1.354,1.755,1.486,1.724
492,0.348,0.268,0.312,0.761,0.714,0.72,1.018,0.945,1.283,1.389,1.371,1.352,1.738,1.479,1.711
493,0.347,0.268,0.31,0.756,0.711,0.718,1.019,0.946,1.278,1.386,1.364,1.35,1.725,1.474,1.698
494,0.346,0.267,0.308,0.751,0.708,0.717,1.02,0.946,1.272,1.382,1.357,1.348,1.71,1.468,1.687
495,0.345,0.266,0.305,0.746,0.704,0.716,1.02,0.948,1.266,1.379,1.35,1.346,1.695,1.462,1.673
496,0.345,0.265,0.303,0.741,0.701,0.715,1.022,0.949,1.261,1.376,1.343,1.345,1.681,1.455,1.661
497,0.344,0.264,0.301,0.737,0.698,0.713,1.022,0.95,1.255,1.373,1.337,1.343,1.667,1.449,1.648
498,0.343,0.263,0.299,0.731,0.694,0.711,1.023,0.951,1.248,1.369,1.33,1.34,1.651,1.442,1.636
499,0.342,0.262,0.297,0.726,0.691,0.71,1.023,0.951,1.242,1.365,1.323,1.338,1.637,1.436,1.623
500,0.341,0.261,0.295,0.722,0.687,0.708,1.024,0.952,1.236,1.361,1.315,1.336,1.623,1.431,1.611
501,0.34,0.26,0.293,0.717,0.684,0.706,1.025,0.953,1.229,1.357,1.309,1.334,1.608,1.424,1.599
502,0.338,0.259,0.291,0.712,0.68,0.705,1.025,0.954,1.223,1.353,1.301,1.332,1.594,1.418,1.586
503,0.336,0.257,0.288,0.707,0.677,0.703,1.025,0.955,1.216,1.348,1.294,1.329,1.58,1.411,1.574
504,0.335,0.256,0.285,0.702,0.673,0.701,1.025,0.956,1.21,1.344,1.288,1.327,1.566,1.405,1.562
505,0.334,0.255,0.283,0.697,0.669,0.699,1.026,0.957,1.203,1.339,1.281,1.324,1.553,1.398,1.549
506,0.333,0.254,0.281,0.692,0.665,0.698,1.026,0.958,1.196,1.336,1.273,1.322,1.538,1.391,1.536
507,0.332,0.253,0.278,0.687,0.662,0.696,1.027,0.958,1.19,1.331,1.266,1.32,1.523,1.385,1.522
508,0.33,0.251,0.276,0.682,0.658,0.694,1.027,0.959,1.183,1.326,1.259,1.318,1.509,1.377,1.51
509,0.328,0.249,0.274,0.677,0.654,0.692,1.028,0.96,1.176,1.321,1.251,1.315,1.495,1.371,1.498
510,0.327,0.249,0.272,0.672,0.65,0.69,1.028,0.96,1.17,1.316,1.244,1.312,1.482,1.364,1.486
511,0.326,0.247,0.27,0.666,0.646,0.688,1.028,0.961,1.163,1.312,1.237,1.309,1.468,1.357,1.473
512,0.325,0.246,0.268,0.661,0.643,0.686,1.029,0.961,1.156,1.307,1.229,1.306,1.454,1.35,1.46
513,0.324,0.245,0.266,0.657,0.639,0.684,1.03,0.962,1.15,1.302,1.223,1.303,1.441,1.343,1.449
514,0.323,0.244,0.264,0.652,0.635,0.683,1.03,0.962,1.143,1.297,1.216,1.301,1.428,1.336,1.436
515,0.321,0.242,0.262,0.646,0.631,0.68,1.03,0.963,1.136,1.292,1.208,1.297,1.415,1.329,1.423
516,0.32,0.242,0.26,0.642,0.627,0.678,1.031,0.964,1.13,1.288,1.201,1.295,1.402,1.322,1.411
517,0.32,0.241,0.258,0.637,0.624,0.677,1.031,0.964,1.124,1.283,1.195,1.292,1.388,1.315,1.4
518,0.318,0.239,0.256,0.632,0.62,0.674,1.031,0.965,1.117,1.278,1.187,1.289,1.376,1.308,1.389
519,0.317,0.238,0.255,0.628,0.616,0.672,1.031,0.966,1.111,1.273,1.181,1.286,1.364,1.302,1.378
520,0.316,0.237,0.252,0.623,0.613,0.67,1.031,0.966,1.104,1.268,1.173,1.283,1.35,1.294,1.365
521,0.315,0.236,0.251,0.618,0.609,0.668,1.032,0.966,1.098,1.262,1.167,1.28,1.338,1.288,1.354
522,0.314,0.235,0.249,0.614,0.605,0.666,1.032,0.967,1.091,1.258,1.16,1.277,1.326,1.281,1.343
523,0.313,0.234,0.247,0.609,0.601,0.663,1.032,0.968,1.084,1.253,1.153,1.274,1.314,1.274,1.332
524,0.312,0.233,0.245,0.605,0.598,0.661,1.032,0.968,1.078,1.248,1.147,1.271,1.303,1.267,1.321
525,0.311,0.232,0.244,0.6,0.594,0.659,1.033,0.968,1.072,1.243,1.14,1.267,1.29,1.26,1.31
526,0.31,0.231,0.243,0.596,0.591,0.657,1.032,0.968,1.066,1.238,1.133,1.264,1.278,1.253,1.299
527,0.309,0.23,0.241,0.591,0.587,0.654,1.032,0.969,1.059,1.233,1.126,1.26,1.266,1.246,1.287
528,0.308,0.229,0.239,0.586,0.583,0.652,1.032,0.969,1.053,1.228,1.119,1.257,1.254,1.239,1.276
529,0.307,0.228,0.237,0.581,0.579,0.65,1.032,0.97,1.046,1.223,1.112,1.253,1.241,1.231,1.265
530,0.306,0.227,0.235,0.576,0.575,0.647,1.032,0.97,1.039,1.217,1.104,1.249,1.229,1.225,1.253
531,0.305,0.226,0.233,0.572,0.571,0.645,1.032,0.971,1.033,1.212,1.097,1.246,1.218,1.217,1.243
532,0.304,0.225,0.231,0.567,0.567,0.642,1.031,0.971,1.026,1.206,1.09,1.242,1.205,1.209,1.231
533,0.302,0.224,0.23,0.562,0.564,0.64,1.032,0.971,1.02,1.201,1.083,1.238,1.193,1.202,1.221
534,0.301,0.223,0.227,0.558,0.56,0.637,1.031,0.971,1.013,1.196,1.076,1.235,1.182,1.194,1.209
535,0.301,0.222,0.226,0.553,0.556,0.634,1.03,0.971,1.006,1.191,1.069,1.231,1.17,1.187,1.199
536,0.299,0.22,0.223,0.548,0.552,0.631,1.029,0.97,0.998,1.183,1.061,1.225,1.156,1.178,1.187
537,0.298,0.22,0.221,0.543,0.548,0.628,1.029,0.971,0.99,1.177,1.052,1.22,1.143,1.17,1.174
538,0.297,0.219,0.22,0.538,0.545,0.626,1.028,0.971,0.984,1.172,1.045,1.216,1.132,1.163,1.164
539,0.296,0.217,0.218,0.534,0.54,0.623,1.027,0.971,0.977,1.166,1.038,1.212,1.12,1.155,1.153
540,0.294,0.216,0.216,0.529,0.537,0.621,1.027,0.971,0.971,1.161,1.031,1.208,1.109,1.148,1.143
541,0.292,0.215,0.214,0.525,0.533,0.618,1.026,0.971,0.964,1.155,1.024,1.203,1.098,1.14,1.132
542,0.291,0.214,0.212,0.52,0.529,0.615,1.026,0.971,0.957,1.149,1.017,1.199,1.086,1.133,1.121
543,0.29,0.213,0.21,0.515,0.525,0.612,1.025,0.971,0.95,1.142,1.01,1.195,1.074,1.125,1.11
544,0.289,0.212,0.208,0.511,0.522,0.609,1.025,0.971,0.943,1.137,1.003,1.192,1.063,1.118,1.1
545,0.288,0.211,0.206,0.507,0.518,0.606,1.024,0.97,0.937,1.131,0.995,1.187,1.052,1.11,1.09
546,0.287,0.21,0.205,0.503,0.514,0.603,1.023,0.971,0.931,1.126,0.989,1.183,1.042,1.103,1.08
547,0.285,0.208,0.202,0.498,0.511,0.6,1.022,0.97,0.923,1.12,0.982,1.178,1.03,1.095,1.069
548,0.284,0.207,0.201,0.493,0.507,0.598,1.021,0.97,0.917,1.114,0.975,1.173,1.02,1.089,1.059
549,0.282,0.206,0.199,0.489,0.503,0.595,1.02,0.969,0.91,1.108,0.968,1.169,1.009,1.081,1.05
550,0.281,0.205,0.197,0.485,0.5,0.592,1.02,0.969,0.904,1.103,0.962,1.165,0.999,1.075,1.04
551,0.28,0.204,0.195,0.481,0.497,0.59,1.019,0.969,0.897,1.097,0.955,1.16,0.989,1.068,1.031
552,0.279,0.203,0.194,0.478,0.494,0.587,1.018,0.968,0.892,1.092,0.948,1.156,0.979,1.061,1.021
553,0.278,0.202,0.193,0.474,0.491,0.584,1.018,0.968,0.886,1.086,0.943,1.152,0.97,1.054,1.012
554,0.276,0.201,0.19,0.47,0.487,0.581,1.016,0.967,0.879,1.08,0.936,1.147,0.959,1.046,1.003
555,0.275,0.199,0.189,0.466,0.484,0.579,1.015,0.967,0.873,1.075,0.929,1.143,0.949,1.039,0.993
556,0.273,0.198,0.187,0.461,0.48,0.575,1.013,0.966,0.866,1.068,0.922,1.138,0.939,1.032,0.983
557,0.272,0.197,0.185,0.457,0.477,0.573,1.012,0.966,0.86,1.063,0.916,1.133,0.929,1.025,0.974
558,0.27,0.195,0.183,0.453,0.473,0.569,1.01,0.964,0.853,1.057,0.909,1.128,0.919,1.018,0.964
559,0.269,0.194,0.182,0.45,0.47,0.566,1.009,0.963,0.847,1.051,0.903,1.124,0.91,1.011,0.956
560,0.268,0.193,0.18,0.446,0.466,0.564,1.008,0.962,0.841,1.045,0.896,1.119,0.9,1.004,0.946
561,0.267,0.192,0.178,0.442,0.463,0.561,1.006,0.962,0.835,1.039,0.89,1.114,0.891,0.997,0.938
562,0.266,0.191,0.176,0.438,0.459,0.558,1.004,0.96,0.829,1.033,0.884,1.109,0.882,0.991,0.929
563,0.264,0.189,0.175,0.434,0.456,0.555,1.003,0.959,0.823,1.027,0.878,1.104,0.873,0.984,0.92
564,0.263,0.188,0.173,0.431,0.453,0.553,1.001,0.958,0.817,1.022,0.871,1.1,0.863,0.978,0.912
565,0.262,0.187,0.172,0.427,0.45,0.55,1,0.957,0.811,1.016,0.865,1.096,0.855,0.971,0.903
566,0.261,0.186,0.17,0.424,0.446,0.547,0.998,0.956,0.805,1.01,0.86,1.091,0.847,0.964,0.895
567,0.259,0.185,0.169,0.42,0.443,0.544,0.996,0.955,0.799,1.005,0.854,1.086,0.838,0.958,0.887
568,0.258,0.184,0.168,0.417,0.44,0.542,0.994,0.954,0.794,0.999,0.848,1.081,0.83,0.952,0.879
569,0.257,0.183,0.166,0.413,0.437,0.539,0.992,0.952,0.788,0.994,0.842,1.076,0.822,0.946,0.871
570,0.255,0.182,0.164,0.409,0.434,0.536,0.989,0.951,0.783,0.988,0.836,1.072,0.813,0.94,0.863
571,0.254,0.181,0.163,0.406,0.431,0.534,0.988,0.95,0.777,0.983,0.831,1.068,0.805,0.934,0.855
572,0.253,0.179,0.162,0.403,0.429,0.531,0.986,0.948,0.772,0.978,0.826,1.063,0.798,0.929,0.848
573,0.252,0.178,0.16,0.399,0.426,0.528,0.984,0.947,0.766,0.972,0.82,1.058,0.79,0.922,0.841
574,0.251,0.177,0.158,0.396,0.422,0.525,0.982,0.945,0.761,0.966,0.815,1.053,0.782,0.916,0.833
575,0.25,0.177,0.157,0.393,0.42,0.523,0.98,0.944,0.756,0.962,0.809,1.049,0.775,0.911,0.826
576,0.249,0.175,0.156,0.389,0.416,0.52,0.978,0.943,0.751,0.956,0.804,1.044,0.767,0.905,0.818
577,0.247,0.174,0.154,0.386,0.413,0.517,0.975,0.941,0.745,0.95,0.798,1.04,0.759,0.898,0.81
578,0.246,0.173,0.153,0.383,0.41,0.514,0.973,0.939,0.74,0.945,0.793,1.035,0.751,0.892,0.803
579,0.245,0.172,0.151,0.379,0.407,0.511,0.97,0.937,0.734,0.939,0.787,1.03,0.744,0.886,0.795
580,0.244,0.171,0.15,0.376,0.404,0.508,0.968,0.935,0.729,0.934,0.782,1.025,0.736,0.88,0.788
581,0.243,0.17,0.149,0.373,0.401,0.505,0.965,0.934,0.724,0.928,0.777,1.02,0.729,0.875,0.781
582,0.242,0.169,0.147,0.37,0.398,0.503,0.963,0.932,0.719,0.923,0.771,1.015,0.722,0.869,0.773
583,0.241,0.168,0.146,0.366,0.395,0.5,0.96,0.93,0.714,0.918,0.766,1.01,0.714,0.863,0.766
584,0.239,0.167,0.144,0.363,0.392,0.497,0.957,0.928,0.709,0.912,0.76,1.006,0.707,0.857,0.759
585,0.238,0.166,0.143,0.359,0.389,0.494,0.955,0.926,0.703,0.907,0.755,1.001,0.7,0.852,0.752
586,0.236,0.165,0.142,0.356,0.386,0.491,0.952,0.924,0.698,0.901,0.75,0.996,0.692,0.846,0.745
587,0.235,0.164,0.141,0.353,0.383,0.488,0.949,0.922,0.693,0.896,0.745,0.991,0.686,0.84,0.738
588,0.234,0.163,0.139,0.349,0.381,0.486,0.946,0.92,0.688,0.89,0.739,0.987,0.678,0.834,0.731
589,0.233,0.161,0.138,0.346,0.377,0.483,0.943,0.917,0.683,0.885,0.734,0.982,0.672,0.829,0.724
590,0.232,0.16,0.136,0.344,0.374,0.48,0.941,0.915,0.678,0.88,0.729,0.977,0.665,0.823,0.718
591,0.231,0.159,0.135,0.34,0.371,0.477,0.938,0.913,0.673,0.875,0.724,0.972,0.658,0.818,0.711
592,0.23,0.158,0.133,0.337,0.368,0.474,0.934,0.91,0.668,0.869,0.719,0.967,0.652,0.812,0.704
593,0.229,0.157,0.132,0.334,0.365,0.471,0.931,0.908,0.663,0.864,0.713,0.962,0.645,0.807,0.698
594,0.227,0.156,0.131,0.331,0.363,0.468,0.928,0.905,0.658,0.859,0.708,0.957,0.639,0.801,0.692
595,0.226,0.155,0.13,0.328,0.36,0.466,0.925,0.903,0.654,0.854,0.704,0.953,0.633,0.796,0.686
596,0.226,0.154,0.129,0.325,0.357,0.463,0.922,0.9,0.65,0.849,0.699,0.949,0.626,0.791,0.68
597,0.225,0.154,0.127,0.322,0.355,0.461,0.919,0.897,0.645,0.844,0.694,0.944,0.62,0.786,0.674
598,0.223,0.153,0.126,0.319,0.352,0.458,0.916,0.895,0.641,0.839,0.69,0.939,0.614,0.781,0.668
599,0.222,0.152,0.125,0.317,0.349,0.455,0.913,0.892,0.636,0.834,0.685,0.935,0.609,0.776,0.662
600,0.222,0.151,0.124,0.314,0.347,0.452,0.91,0.89,0.632,0.83,0.681,0.93,0.603,0.771,0.657
601,0.221,0.15,0.123,0.311,0.344,0.449,0.907,0.887,0.628,0.825,0.676,0.926,0.597,0.766,0.651
602,0.219,0.149,0.122,0.308,0.342,0.447,0.904,0.885,0.623,0.82,0.671,0.921,0.592,0.761,0.645
603,0.218,0.148,0.121,0.306,0.339,0.444,0.9,0.882,0.619,0.815,0.667,0.916,0.586,0.757,0.64
604,0.217,0.147,0.119,0.303,0.336,0.442,0.897,0.879,0.614,0.811,0.662,0.912,0.58,0.752,0.634
605,0.216,0.146,0.118,0.3,0.334,0.439,0.894,0.876,0.61,0.806,0.658,0.907,0.575,0.747,0.629
606,0.215,0.146,0.117,0.298,0.331,0.436,0.89,0.873,0.606,0.801,0.654,0.903,0.569,0.742,0.624
607,0.214,0.145,0.116,0.295,0.329,0.433,0.887,0.87,0.602,0.796,0.649,0.898,0.563,0.737,0.618
608,0.214,0.144,0.115,0.292,0.326,0.431,0.883,0.867,0.598,0.792,0.645,0.894,0.558,0.733,0.613
609,0.212,0.143,0.114,0.29,0.324,0.428,0.88,0.864,0.594,0.787,0.64,0.889,0.553,0.729,0.608
610,0.212,0.143,0.113,0.287,0.322,0.426,0.877,0.862,0.59,0.783,0.636,0.885,0.549,0.724,0.603
611,0.211,0.142,0.111,0.285,0.319,0.424,0.874,0.859,0.586,0.779,0.632,0.881,0.544,0.72,0.599
612,0.209,0.141,0.11,0.282,0.317,0.421,0.87,0.856,0.582,0.774,0.628,0.876,0.539,0.715,0.593
613,0.208,0.14,0.109,0.28,0.315,0.418,0.867,0.853,0.578,0.77,0.624,0.872,0.533,0.711,0.589
614,0.207,0.139,0.108,0.278,0.312,0.415,0.864,0.85,0.574,0.766,0.619,0.868,0.529,0.707,0.584
615,0.206,0.138,0.107,0.275,0.31,0.413,0.86,0.847,0.571,0.761,0.616,0.863,0.524,0.703,0.579
616,0.205,0.137,0.106,0.273,0.307,0.41,0.857,0.844,0.567,0.757,0.612,0.859,0.519,0.699,0.575
617,0.204,0.137,0.105,0.271,0.306,0.408,0.854,0.841,0.563,0.753,0.608,0.856,0.515,0.695,0.571
618,0.204,0.136,0.104,0.269,0.304,0.406,0.85,0.838,0.56,0.749,0.605,0.852,0.511,0.691,0.566
619,0.203,0.135,0.103,0.266,0.302,0.404,0.847,0.836,0.556,0.745,0.601,0.847,0.506,0.688,0.562
620,0.202,0.135,0.102,0.264,0.3,0.401,0.844,0.833,0.552,0.741,0.597,0.843,0.502,0.684,0.558
621,0.201,0.134,0.101,0.262,0.297,0.399,0.84,0.83,0.549,0.737,0.593,0.839,0.498,0.68,0.554
622,0.2,0.133,0.099,0.26,0.295,0.397,0.837,0.826,0.545,0.733,0.589,0.835,0.494,0.676,0.55
623,0.198,0.132,0.098,0.257,0.293,0.394,0.833,0.823,0.541,0.729,0.585,0.83,0.49,0.672,0.546
624,0.197,0.13,0.097,0.255,0.291,0.391,0.829,0.819,0.537,0.724,0.581,0.826,0.485,0.668,0.541
625,0.197,0.13,0.096,0.253,0.289,0.389,0.826,0.817,0.534,0.721,0.578,0.822,0.482,0.665,0.537
626,0.196,0.129,0.096,0.251,0.287,0.387,0.823,0.814,0.531,0.717,0.575,0.818,0.478,0.661,0.533
627,0.195,0.129,0.095,0.25,0.285,0.385,0.82,0.811,0.528,0.713,0.572,0.815,0.474,0.658,0.53
628,0.194,0.128,0.094,0.248,0.283,0.382,0.816,0.808,0.524,0.709,0.568,0.811,0.47,0.654,0.526
629,0.193,0.127,0.093,0.245,0.281,0.38,0.813,0.805,0.521,0.706,0.564,0.807,0.466,0.651,0.522
630,0.192,0.127,0.092,0.243,0.279,0.378,0.809,0.802,0.517,0.702,0.561,0.803,0.463,0.647,0.518
631,0.191,0.126,0.091,0.242,0.277,0.376,0.806,0.799,0.514,0.698,0.558,0.799,0.459,0.644,0.514
632,0.19,0.125,0.09,0.239,0.275,0.373,0.801,0.795,0.51,0.694,0.554,0.795,0.454,0.639,0.51
633,0.189,0.124,0.089,0.237,0.273,0.37,0.798,0.792,0.507,0.689,0.55,0.791,0.45,0.636,0.506
634,0.188,0.123,0.088,0.235,0.271,0.368,0.794,0.789,0.504,0.685,0.546,0.787,0.447,0.633,0.502
635,0.187,0.122,0.086,0.234,0.269,0.366,0.791,0.786,0.5,0.681,0.543,0.783,0.444,0.629,0.499
636,0.186,0.121,0.085,0.232,0.267,0.363,0.787,0.783,0.497,0.677,0.54,0.779,0.439,0.626,0.495
637,0.185,0.121,0.085,0.23,0.266,0.361,0.784,0.78,0.494,0.674,0.537,0.776,0.436,0.623,0.492
638,0.184,0.12,0.084,0.228,0.264,0.359,0.78,0.777,0.491,0.671,0.534,0.772,0.432,0.62,0.489
639,0.183,0.12,0.083,0.226,0.262,0.357,0.777,0.774,0.488,0.668,0.531,0.768,0.429,0.616,0.486
640,0.183,0.119,0.082,0.225,0.261,0.355,0.773,0.771,0.485,0.664,0.527,0.765,0.426,0.613,0.483
641,0.182,0.118,0.081,0.223,0.258,0.353,0.769,0.767,0.482,0.66,0.524,0.761,0.423,0.611,0.479
642,0.181,0.118,0.08,0.221,0.257,0.351,0.766,0.765,0.479,0.657,0.521,0.757,0.42,0.608,0.476
643,0.18,0.117,0.079,0.22,0.255,0.349,0.763,0.762,0.476,0.653,0.518,0.754,0.417,0.605,0.473
644,0.179,0.116,0.078,0.218,0.253,0.346,0.76,0.759,0.473,0.65,0.515,0.75,0.414,0.602,0.47
645,0.178,0.115,0.077,0.217,0.252,0.344,0.756,0.755,0.47,0.647,0.513,0.747,0.41,0.599,0.467
646,0.177,0.115,0.077,0.215,0.25,0.343,0.753,0.752,0.467,0.643,0.509,0.744,0.408,0.596,0.464
647,0.177,0.114,0.076,0.214,0.248,0.341,0.75,0.749,0.464,0.64,0.506,0.74,0.405,0.593,0.461
648,0.175,0.113,0.075,0.212,0.247,0.338,0.747,0.746,0.461,0.636,0.503,0.736,0.401,0.59,0.458
649,0.174,0.112,0.074,0.21,0.245,0.337,0.744,0.743,0.458,0.633,0.5,0.733,0.399,0.587,0.455
650,0.173,0.111,0.073,0.209,0.244,0.334,0.74,0.74,0.455,0.629,0.497,0.73,0.396,0.584,0.452
651,0.173,0.111,0.072,0.208,0.243,0.333,0.737,0.737,0.453,0.626,0.495,0.726,0.394,0.581,0.45
652,0.172,0.11,0.072,0.206,0.241,0.331,0.734,0.734,0.45,0.622,0.492,0.723,0.391,0.579,0.446
653,0.171,0.109,0.071,0.204,0.24,0.329,0.731,0.731,0.447,0.619,0.489,0.719,0.388,0.576,0.443
654,0.17,0.109,0.07,0.203,0.238,0.327,0.728,0.728,0.444,0.616,0.486,0.716,0.385,0.573,0.44
655,0.169,0.108,0.069,0.201,0.236,0.325,0.724,0.725,0.441,0.612,0.483,0.712,0.382,0.57,0.438
656,0.168,0.107,0.068,0.2,0.235,0.323,0.721,0.722,0.438,0.609,0.481,0.709,0.38,0.568,0.435
657,0.167,0.107,0.068,0.199,0.233,0.321,0.718,0.719,0.436,0.606,0.478,0.706,0.378,0.566,0.432
658,0.167,0.106,0.067,0.197,0.232,0.319,0.715,0.716,0.433,0.603,0.476,0.703,0.376,0.563,0.43
659,0.165,0.105,0.066,0.195,0.23,0.317,0.711,0.712,0.43,0.599,0.473,0.699,0.373,0.56,0.426
660,0.164,0.104,0.065,0.193,0.229,0.315,0.708,0.709,0.428,0.596,0.47,0.695,0.371,0.557,0.423
661,0.164,0.103,0.065,0.192,0.227,0.314,0.705,0.706,0.425,0.593,0.467,0.692,0.368,0.555,0.421
662,0.163,0.103,0.064,0.191,0.226,0.312,0.702,0.703,0.423,0.59,0.465,0.689,0.365,0.552,0.419
663,0.163,0.102,0.064,0.19,0.225,0.31,0.699,0.7,0.421,0.587,0.463,0.686,0.363,0.55,0.417
664,0.162,0.102,0.063,0.188,0.223,0.308,0.696,0.697,0.418,0.584,0.461,0.683,0.361,0.548,0.415
665,0.161,0.101,0.063,0.187,0.222,0.307,0.693,0.694,0.416,0.581,0.459,0.68,0.359,0.546,0.412
666,0.161,0.101,0.062,0.186,0.221,0.305,0.69,0.691,0.414,0.579,0.457,0.677,0.357,0.544,0.41
667,0.16,0.1,0.061,0.184,0.219,0.303,0.686,0.688,0.411,0.575,0.454,0.674,0.355,0.541,0.407
668,0.159,0.099,0.06,0.183,0.217,0.301,0.683,0.685,0.409,0.573,0.452,0.671,0.353,0.539,0.405
669,0.159,0.099,0.06,0.182,0.216,0.3,0.68,0.682,0.407,0.57,0.45,0.668,0.351,0.537,0.403
670,0.158,0.099,0.059,0.18,0.215,0.298,0.677,0.679,0.405,0.567,0.448,0.665,0.35,0.535,0.401
671,0.157,0.098,0.059,0.179,0.214,0.296,0.674,0.676,0.403,0.564,0.446,0.662,0.348,0.533,0.399
672,0.157,0.098,0.058,0.178,0.212,0.295,0.671,0.673,0.401,0.562,0.444,0.66,0.346,0.531,0.397
673,0.156,0.097,0.058,0.176,0.211,0.293,0.669,0.67,0.399,0.56,0.442,0.656,0.344,0.529,0.396
674,0.155,0.096,0.057,0.175,0.21,0.291,0.666,0.667,0.396,0.557,0.439,0.654,0.342,0.526,0.393
675,0.155,0.096,0.057,0.174,0.209,0.29,0.663,0.665,0.395,0.554,0.437,0.651,0.341,0.525,0.392
676,0.155,0.096,0.057,0.173,0.208,0.288,0.66,0.662,0.393,0.552,0.436,0.648,0.339,0.523,0.39
677,0.154,0.095,0.056,0.172,0.206,0.287,0.657,0.659,0.39,0.549,0.433,0.645,0.337,0.521,0.388
678,0.153,0.094,0.055,0.17,0.205,0.285,0.653,0.656,0.388,0.546,0.43,0.642,0.335,0.518,0.386
679,0.152,0.094,0.055,0.169,0.203,0.283,0.65,0.653,0.385,0.544,0.428,0.639,0.333,0.516,0.384
680,0.152,0.094,0.054,0.168,0.202,0.282,0.647,0.65,0.383,0.541,0.426,0.636,0.331,0.514,0.382
681,0.151,0.093,0.054,0.166,0.201,0.28,0.644,0.647,0.381,0.538,0.425,0.633,0.33,0.512,0.38
682,0.15,0.092,0.053,0.165,0.199,0.278,0.641,0.644,0.379,0.536,0.423,0.63,0.328,0.51,0.378
683,0.15,0.092,0.053,0.164,0.198,0.277,0.638,0.641,0.377,0.534,0.421,0.627,0.326,0.508,0.376
684,0.149,0.092,0.052,0.163,0.197,0.275,0.635,0.638,0.375,0.531,0.419,0.624,0.325,0.506,0.375
685,0.149,0.091,0.052,0.161,0.196,0.273,0.632,0.635,0.373,0.528,0.417,0.621,0.323,0.503,0.373
686,0.148,0.09,0.051,0.16,0.195,0.271,0.629,0.632,0.371,0.526,0.415,0.618,0.322,0.501,0.371
687,0.147,0.09,0.051,0.159,0.193,0.27,0.626,0.629,0.369,0.524,0.413,0.616,0.32,0.5,0.37
688,0.147,0.09,0.051,0.158,0.193,0.269,0.624,0.627,0.367,0.522,0.411,0.614,0.319,0.498,0.368
689,0.147,0.089,0.05,0.157,0.192,0.267,0.62,0.624,0.365,0.52,0.41,0.611,0.317,0.496,0.366
690,0.146,0.089,0.05,0.156,0.19,0.266,0.618,0.622,0.364,0.518,0.408,0.609,0.316,0.494,0.365
691,0.146,0.089,0.049,0.155,0.189,0.264,0.615,0.619,0.362,0.515,0.406,0.606,0.314,0.492,0.364
692,0.145,0.088,0.048,0.154,0.188,0.263,0.611,0.616,0.36,0.512,0.404,0.603,0.313,0.49,0.362
693,0.144,0.087,0.048,0.152,0.186,0.261,0.608,0.613,0.357,0.51,0.402,0.6,0.311,0.488,0.36
694,0.143,0.087,0.047,0.151,0.185,0.259,0.605,0.609,0.355,0.507,0.4,0.597,0.309,0.486,0.358
695,0.142,0.086,0.046,0.15,0.183,0.257,0.602,0.607,0.353,0.505,0.398,0.594,0.308,0.484,0.357
696,0.142,0.087,0.046,0.149,0.183,0.256,0.6,0.605,0.352,0.503,0.396,0.592,0.307,0.483,0.356
697,0.143,0.087,0.046,0.148,0.183,0.255,0.598,0.603,0.35,0.502,0.395,0.59,0.306,0.482,0.355
698,0.142,0.086,0.046,0.147,0.182,0.254,0.595,0.6,0.349,0.5,0.393,0.588,0.305,0.48,0.354
699,0.142,0.086,0.046,0.147,0.181,0.253,0.593,0.598,0.347,0.498,0.392,0.586,0.304,0.478,0.352
700,0.141,0.085,0.045,0.145,0.179,0.251,0.59,0.595,0.346,0.496,0.39,0.583,0.303,0.476,0.351
701,0.14,0.085,0.044,0.144,0.178,0.249,0.586,0.592,0.343,0.493,0.388,0.58,0.301,0.474,0.349
702,0.139,0.083,0.043,0.142,0.176,0.247,0.583,0.589,0.341,0.49,0.386,0.577,0.299,0.471,0.347
703,0.138,0.082,0.043,0.14,0.175,0.246,0.58,0.586,0.339,0.488,0.384,0.574,0.297,0.469,0.345
704,0.138,0.082,0.042,0.139,0.174,0.244,0.578,0.583,0.337,0.486,0.382,0.572,0.296,0.468,0.344
705,0.138,0.083,0.043,0.14,0.174,0.244,0.576,0.582,0.336,0.485,0.382,0.571,0.296,0.467,0.344
706,0.139,0.084,0.044,0.139,0.174,0.243,0.574,0.58,0.335,0.483,0.381,0.569,0.296,0.466,0.344
707,0.138,0.083,0.043,0.138,0.173,0.242,0.572,0.578,0.334,0.482,0.38,0.567,0.295,0.465,0.343
708,0.137,0.082,0.042,0.137,0.171,0.24,0.569,0.575,0.331,0.479,0.377,0.564,0.293,0.462,0.341
709,0.135,0.081,0.04,0.134,0.169,0.237,0.565,0.571,0.328,0.476,0.374,0.56,0.29,0.459,0.338
710,0.134,0.08,0.04,0.133,0.168,0.236,0.562,0.569,0.327,0.474,0.373,0.558,0.289,0.458,0.337
711,0.134,0.081,0.04,0.133,0.167,0.235,0.561,0.567,0.326,0.473,0.372,0.557,0.289,0.457,0.336
712,0.135,0.081,0.041,0.133,0.167,0.235,0.559,0.565,0.325,0.472,0.371,0.556,0.289,0.456,0.336
713,0.135,0.081,0.041,0.132,0.167,0.234,0.557,0.563,0.324,0.47,0.37,0.553,0.288,0.454,0.335
714,0.133,0.08,0.039,0.13,0.165,0.231,0.553,0.56,0.321,0.467,0.367,0.55,0.286,0.452,0.333
715,0.132,0.079,0.038,0.129,0.163,0.229,0.551,0.557,0.319,0.465,0.365,0.547,0.285,0.45,0.332
716,0.132,0.079,0.038,0.128,0.163,0.229,0.549,0.556,0.318,0.464,0.364,0.546,0.284,0.449,0.331
717,0.132,0.079,0.039,0.128,0.163,0.228,0.547,0.554,0.318,0.463,0.364,0.545,0.284,0.449,0.331
718,0.132,0.078,0.038,0.127,0.162,0.227,0.545,0.552,0.316,0.461,0.362,0.543,0.283,0.446,0.33
719,0.13,0.077,0.037,0.125,0.16,0.225,0.541,0.548,0.313,0.458,0.36,0.539,0.281,0.444,0.328
720,0.13,0.077,0.036,0.124,0.159,0.223,0.539,0.546,0.312,0.456,0.358,0.537,0.28,0.442,0.326
721,0.13,0.077,0.037,0.124,0.159,0.223,0.537,0.544,0.311,0.455,0.358,0.536,0.28,0.441,0.326
722,0.13,0.077,0.037,0.124,0.159,0.222,0.535,0.542,0.309,0.454,0.357,0.534,0.279,0.44,0.326
723,0.129,0.076,0.037,0.122,0.157,0.22,0.532,0.54,0.308,0.452,0.355,0.532,0.278,0.438,0.324
724,0.128,0.075,0.035,0.12,0.155,0.218,0.529,0.536,0.305,0.449,0.353,0.529,0.276,0.436,0.322
725,0.127,0.074,0.034,0.119,0.154,0.217,0.526,0.534,0.303,0.446,0.351,0.526,0.275,0.434,0.32
726,0.127,0.075,0.035,0.119,0.154,0.217,0.525,0.533,0.303,0.446,0.351,0.526,0.275,0.434,0.32
727,0.128,0.075,0.036,0.119,0.154,0.216,0.524,0.531,0.302,0.445,0.35,0.524,0.275,0.433,0.32
728,0.127,0.075,0.035,0.118,0.153,0.215,0.521,0.529,0.301,0.443,0.349,0.522,0.274,0.431,0.319
729,0.125,0.073,0.033,0.116,0.151,0.212,0.517,0.525,0.298,0.44,0.346,0.518,0.272,0.428,0.317
730,0.124,0.071,0.032,0.115,0.149,0.21,0.514,0.522,0.296,0.437,0.343,0.516,0.27,0.426,0.315
731,0.124,0.072,0.032,0.114,0.149,0.21,0.513,0.52,0.295,0.436,0.343,0.515,0.27,0.425,0.315
732,0.125,0.074,0.034,0.115,0.15,0.211,0.512,0.52,0.295,0.436,0.343,0.514,0.271,0.426,0.316
733,0.125,0.073,0.034,0.115,0.149,0.21,0.51,0.518,0.294,0.435,0.342,0.513,0.271,0.425,0.315
734,0.123,0.071,0.032,0.112,0.147,0.206,0.506,0.514,0.29,0.431,0.34,0.509,0.268,0.421,0.313
735,0.121,0.069,0.03,0.11,0.144,0.203,0.503,0.51,0.287,0.428,0.336,0.505,0.265,0.418,0.31
736,0.122,0.07,0.03,0.11,0.145,0.203,0.502,0.509,0.286,0.427,0.336,0.504,0.265,0.418,0.31
737,0.124,0.072,0.032,0.112,0.146,0.205,0.502,0.51,0.288,0.428,0.337,0.505,0.267,0.419,0.311
738,0.123,0.072,0.033,0.111,0.146,0.204,0.5,0.508,0.287,0.427,0.336,0.504,0.267,0.418,0.311
739,0.12,0.069,0.03,0.108,0.142,0.2,0.495,0.503,0.283,0.423,0.332,0.499,0.264,0.414,0.308
740,0.118,0.067,0.028,0.105,0.14,0.197,0.491,0.499,0.28,0.42,0.329,0.495,0.261,0.411,0.305
741,0.12,0.069,0.03,0.107,0.142,0.199,0.492,0.499,0.281,0.42,0.331,0.496,0.263,0.412,0.306
742,0.122,0.071,0.032,0.108,0.143,0.2,0.492,0.5,0.281,0.421,0.332,0.496,0.264,0.413,0.308
743,0.119,0.068,0.029,0.105,0.14,0.196,0.487,0.495,0.278,0.417,0.328,0.492,0.262,0.409,0.304
744,0.116,0.065,0.026,0.102,0.136,0.192,0.482,0.49,0.274,0.412,0.324,0.487,0.258,0.405,0.301
745,0.116,0.066,0.027,0.103,0.137,0.193,0.482,0.489,0.274,0.412,0.324,0.487,0.259,0.405,0.301
746,0.119,0.069,0.03,0.105,0.139,0.195,0.482,0.49,0.275,0.414,0.326,0.488,0.261,0.407,0.304
747,0.119,0.069,0.03,0.105,0.139,0.194,0.48,0.489,0.275,0.413,0.326,0.487,0.261,0.406,0.304
748,0.116,0.066,0.027,0.101,0.136,0.19,0.476,0.484,0.27,0.408,0.321,0.482,0.257,0.402,0.3
749,0.113,0.063,0.025,0.099,0.133,0.187,0.472,0.48,0.267,0.405,0.318,0.478,0.255,0.399,0.297
750,0.117,0.066,0.028,0.101,0.136,0.19,0.473,0.482,0.269,0.407,0.321,0.48,0.257,0.401,0.299
751,0.118,0.068,0.029,0.102,0.137,0.191,0.473,0.481,0.269,0.407,0.321,0.48,0.259,0.401,0.3
752,0.114,0.064,0.026,0.098,0.133,0.186,0.468,0.476,0.265,0.402,0.317,0.475,0.255,0.397,0.297
753,0.112,0.062,0.024,0.096,0.131,0.183,0.464,0.471,0.262,0.399,0.314,0.472,0.253,0.394,0.294
754,0.115,0.066,0.027,0.099,0.133,0.186,0.466,0.473,0.264,0.401,0.316,0.474,0.256,0.396,0.296
755,0.117,0.067,0.029,0.1,0.134,0.187,0.465,0.473,0.265,0.401,0.317,0.473,0.257,0.397,0.297
756,0.112,0.064,0.026,0.096,0.13,0.182,0.46,0.468,0.26,0.397,0.313,0.469,0.253,0.393,0.293
757,0.11,0.061,0.023,0.094,0.128,0.18,0.457,0.464,0.258,0.394,0.31,0.466,0.251,0.39,0.291
758,0.115,0.065,0.027,0.097,0.132,0.184,0.459,0.467,0.26,0.396,0.313,0.468,0.254,0.392,0.294
759,0.113,0.064,0.026,0.096,0.13,0.182,0.456,0.464,0.259,0.395,0.311,0.465,0.253,0.391,0.293
760,0.112,0.062,0.025,0.095,0.128,0.179,0.454,0.461,0.256,0.392,0.309,0.463,0.252,0.389,0.291
761,0.112,0.063,0.025,0.095,0.129,0.18,0.453,0.46,0.256,0.391,0.309,0.462,0.252,0.389,0.291
762,0.112,0.064,0.026,0.095,0.129,0.179,0.451,0.459,0.255,0.391,0.309,0.461,0.252,0.388,0.291
763,0.109,0.06,0.023,0.091,0.125,0.175,0.446,0.454,0.251,0.386,0.305,0.456,0.248,0.384,0.287
764,0.109,0.06,0.023,0.091,0.125,0.175,0.445,0.453,0.251,0.385,0.304,0.456,0.249,0.384,0.287
765,0.112,0.063,0.025,0.093,0.127,0.177,0.445,0.454,0.252,0.387,0.306,0.456,0.251,0.385,0.289
766,0.109,0.061,0.023,0.09,0.124,0.173,0.441,0.449,0.248,0.383,0.303,0.453,0.248,0.381,0.286
767,0.107,0.059,0.022,0.089,0.123,0.171,0.439,0.446,0.246,0.381,0.301,0.45,0.247,0.38,0.284
768,0.11,0.061,0.024,0.091,0.125,0.174,0.44,0.447,0.248,0.382,0.303,0.451,0.249,0.381,0.286
769,0.109,0.061,0.024,0.09,0.123,0.173,0.437,0.445,0.246,0.38,0.301,0.449,0.247,0.379,0.285
770,0.106,0.058,0.022,0.087,0.121,0.169,0.433,0.44,0.243,0.376,0.298,0.445,0.245,0.376,0.282
771,0.108,0.06,0.023,0.089,0.122,0.17,0.434,0.441,0.244,0.377,0.299,0.446,0.247,0.378,0.283
772,0.11,0.061,0.024,0.09,0.123,0.172,0.433,0.441,0.245,0.377,0.299,0.445,0.248,0.378,0.284
773,0.106,0.058,0.021,0.086,0.119,0.167,0.427,0.435,0.24,0.373,0.295,0.441,0.244,0.373,0.28
774,0.104,0.057,0.021,0.085,0.118,0.165,0.426,0.433,0.239,0.371,0.294,0.439,0.243,0.372,0.279
775,0.108,0.06,0.024,0.088,0.122,0.168,0.427,0.435,0.241,0.374,0.297,0.441,0.247,0.375,0.282
776,0.107,0.059,0.022,0.087,0.12,0.167,0.424,0.432,0.239,0.371,0.295,0.438,0.245,0.372,0.28
777,0.103,0.055,0.02,0.083,0.116,0.163,0.419,0.427,0.234,0.367,0.291,0.434,0.241,0.368,0.276
778,0.105,0.058,0.023,0.086,0.119,0.164,0.42,0.429,0.236,0.368,0.293,0.435,0.244,0.37,0.278
779,0.108,0.06,0.024,0.088,0.12,0.166,0.421,0.429,0.237,0.369,0.294,0.435,0.246,0.371,0.28
780,0.103,0.056,0.02,0.083,0.116,0.161,0.414,0.423,0.232,0.364,0.289,0.43,0.241,0.366,0.275
781,0.102,0.055,0.021,0.082,0.115,0.16,0.413,0.421,0.232,0.362,0.288,0.428,0.24,0.366,0.274
782,0.106,0.059,0.024,0.087,0.119,0.164,0.415,0.424,0.235,0.365,0.291,0.431,0.245,0.369,0.278
783,0.103,0.055,0.02,0.082,0.115,0.16,0.41,0.418,0.23,0.36,0.287,0.427,0.24,0.364,0.274
784,0.099,0.053,0.019,0.079,0.112,0.157,0.406,0.414,0.226,0.357,0.284,0.423,0.237,0.361,0.27
785,0.104,0.058,0.024,0.085,0.117,0.161,0.41,0.419,0.231,0.362,0.289,0.426,0.243,0.366,0.276
786,0.104,0.056,0.021,0.083,0.115,0.159,0.406,0.415,0.229,0.359,0.286,0.424,0.241,0.363,0.274
787,0.098,0.051,0.017,0.077,0.109,0.154,0.4,0.408,0.223,0.353,0.281,0.418,0.236,0.357,0.268
788,0.102,0.056,0.023,0.083,0.115,0.158,0.405,0.413,0.228,0.357,0.286,0.422,0.242,0.363,0.273
789,0.103,0.056,0.021,0.082,0.113,0.157,0.402,0.41,0.226,0.355,0.284,0.42,0.241,0.361,0.272
790,0.097,0.05,0.016,0.075,0.107,0.151,0.395,0.402,0.22,0.348,0.278,0.413,0.234,0.354,0.265
791,0.1,0.054,0.022,0.08,0.112,0.155,0.398,0.407,0.224,0.352,0.282,0.416,0.239,0.358,0.269
792,0.104,0.057,0.024,0.083,0.115,0.157,0.399,0.408,0.226,0.354,0.284,0.418,0.242,0.361,0.272
793,0.098,0.05,0.016,0.075,0.107,0.15,0.39,0.399,0.218,0.346,0.276,0.41,0.234,0.352,0.264
794,0.097,0.05,0.019,0.076,0.108,0.149,0.39,0.398,0.218,0.346,0.276,0.409,0.235,0.352,0.265
795,0.102,0.056,0.024,0.082,0.114,0.155,0.394,0.403,0.223,0.351,0.282,0.415,0.242,0.358,0.271
796,0.097,0.05,0.015,0.074,0.106,0.148,0.385,0.394,0.215,0.343,0.274,0.406,0.233,0.35,0.263
797,0.097,0.051,0.019,0.076,0.107,0.148,0.386,0.395,0.216,0.344,0.275,0.406,0.235,0.351,0.264
798,0.101,0.055,0.024,0.081,0.112,0.153,0.389,0.399,0.221,0.348,0.28,0.411,0.241,0.356,0.269
799,0.096,0.049,0.015,0.073,0.104,0.146,0.38,0.389,0.212,0.339,0.272,0.402,0.232,0.347,0.261
800,0.096,0.05,0.019,0.075,0.105,0.147,0.382,0.39,0.213,0.34,0.273,0.403,0.234,0.349,0.262
801,0.1,0.054,0.023,0.08,0.11,0.151,0.384,0.394,0.218,0.344,0.278,0.407,0.24,0.354,0.267
802,0.095,0.048,0.014,0.072,0.102,0.144,0.375,0.384,0.209,0.336,0.269,0.398,0.231,0.345,0.259
803,0.096,0.05,0.02,0.075,0.105,0.146,0.378,0.387,0.212,0.337,0.272,0.4,0.234,0.348,0.262
804,0.098,0.052,0.021,0.077,0.108,0.148,0.378,0.387,0.214,0.339,0.274,0.402,0.237,0.35,0.264
805,0.094,0.047,0.014,0.07,0.101,0.141,0.371,0.38,0.207,0.332,0.267,0.394,0.229,0.342,0.257
806,0.098,0.052,0.023,0.077,0.107,0.147,0.377,0.386,0.213,0.337,0.273,0.399,0.237,0.349,0.263
807,0.095,0.049,0.016,0.072,0.102,0.142,0.369,0.378,0.208,0.333,0.267,0.394,0.232,0.343,0.258
808,0.094,0.048,0.016,0.071,0.101,0.14,0.368,0.377,0.206,0.33,0.266,0.391,0.23,0.341,0.257
809,0.097,0.052,0.023,0.077,0.107,0.146,0.372,0.382,0.211,0.335,0.272,0.397,0.237,0.347,0.263
810,0.093,0.047,0.014,0.07,0.1,0.139,0.364,0.373,0.204,0.329,0.265,0.389,0.23,0.34,0.256
811,0.096,0.05,0.02,0.073,0.103,0.142,0.368,0.376,0.207,0.33,0.268,0.391,0.233,0.343,0.258
812,0.094,0.049,0.021,0.073,0.104,0.142,0.365,0.375,0.207,0.33,0.267,0.391,0.234,0.343,0.259
813,0.092,0.046,0.013,0.068,0.098,0.137,0.359,0.368,0.201,0.325,0.261,0.384,0.228,0.336,0.253
814,0.096,0.05,0.022,0.074,0.103,0.141,0.364,0.373,0.206,0.329,0.267,0.389,0.234,0.342,0.258
815,0.092,0.047,0.018,0.07,0.1,0.138,0.358,0.368,0.203,0.326,0.263,0.385,0.231,0.338,0.255
816,0.093,0.047,0.015,0.069,0.098,0.136,0.357,0.366,0.2,0.323,0.261,0.382,0.229,0.336,0.253
817,0.095,0.05,0.023,0.073,0.103,0.14,0.36,0.37,0.205,0.327,0.266,0.387,0.234,0.341,0.258
818,0.09,0.045,0.015,0.068,0.097,0.136,0.353,0.363,0.199,0.321,0.26,0.38,0.229,0.335,0.252
819,0.093,0.048,0.017,0.069,0.098,0.136,0.354,0.363,0.199,0.321,0.26,0.38,0.23,0.335,0.253
820,0.093,0.049,0.022,0.072,0.101,0.138,0.355,0.364,0.201,0.323,0.263,0.383,0.233,0.338,0.255
821,0.089,0.044,0.014,0.066,0.095,0.132,0.348,0.358,0.195,0.317,0.257,0.376,0.227,0.332,0.25
822,0.094,0.049,0.019,0.07,0.099,0.135,0.352,0.361,0.199,0.32,0.26,0.378,0.23,0.335,0.253
823,0.091,0.046,0.02,0.07,0.098,0.135,0.349,0.358,0.198,0.318,0.259,0.378,0.231,0.334,0.252
824,0.089,0.044,0.014,0.065,0.094,0.131,0.344,0.354,0.193,0.315,0.255,0.372,0.227,0.33,0.249
825,0.095,0.049,0.021,0.07,0.099,0.134,0.349,0.358,0.198,0.318,0.26,0.377,0.232,0.335,0.253
826,0.088,0.044,0.017,0.067,0.095,0.132,0.343,0.353,0.194,0.314,0.255,0.372,0.228,0.33,0.249
827,0.091,0.047,0.016,0.066,0.095,0.131,0.343,0.352,0.193,0.314,0.255,0.371,0.228,0.33,0.249
828,0.093,0.048,0.021,0.069,0.098,0.132,0.344,0.353,0.195,0.315,0.257,0.374,0.231,0.333,0.252
829,0.086,0.042,0.015,0.064,0.092,0.128,0.336,0.347,0.19,0.31,0.251,0.367,0.226,0.326,0.246
830,0.093,0.049,0.02,0.068,0.096,0.131,0.341,0.35,0.193,0.314,0.256,0.371,0.229,0.331,0.25
831,0.088,0.042,0.018,0.065,0.093,0.128,0.335,0.345,0.19,0.309,0.252,0.367,0.227,0.327,0.247
832,0.087,0.044,0.015,0.064,0.092,0.128,0.334,0.344,0.188,0.308,0.251,0.365,0.226,0.325,0.246
833,0.093,0.048,0.021,0.068,0.096,0.13,0.338,0.346,0.192,0.311,0.254,0.369,0.23,0.33,0.249
834,0.084,0.041,0.014,0.062,0.089,0.125,0.329,0.34,0.185,0.304,0.248,0.361,0.224,0.323,0.243
835,0.093,0.049,0.02,0.068,0.096,0.13,0.336,0.345,0.191,0.31,0.254,0.366,0.229,0.329,0.249
836,0.089,0.044,0.019,0.065,0.093,0.126,0.331,0.34,0.188,0.306,0.251,0.363,0.227,0.326,0.246
837,0.085,0.041,0.014,0.062,0.089,0.125,0.327,0.338,0.185,0.303,0.247,0.358,0.224,0.321,0.243
838,0.093,0.049,0.023,0.068,0.095,0.129,0.333,0.341,0.191,0.308,0.253,0.365,0.231,0.328,0.249
839,0.083,0.039,0.015,0.06,0.088,0.122,0.323,0.333,0.183,0.299,0.244,0.356,0.224,0.32,0.241
840,0.091,0.048,0.02,0.066,0.093,0.128,0.329,0.338,0.188,0.306,0.25,0.361,0.229,0.325,0.247
841,0.088,0.043,0.019,0.064,0.091,0.123,0.324,0.333,0.185,0.301,0.247,0.358,0.227,0.323,0.244
842,0.084,0.041,0.014,0.06,0.088,0.122,0.32,0.331,0.182,0.298,0.244,0.354,0.224,0.319,0.241
843,0.093,0.049,0.023,0.068,0.094,0.127,0.327,0.335,0.188,0.305,0.251,0.36,0.23,0.326,0.248
844,0.08,0.037,0.013,0.057,0.084,0.117,0.315,0.325,0.177,0.293,0.24,0.349,0.221,0.315,0.237
845,0.09,0.047,0.02,0.065,0.092,0.125,0.323,0.332,0.185,0.301,0.248,0.356,0.227,0.322,0.245
846,0.085,0.04,0.017,0.06,0.087,0.118,0.315,0.325,0.179,0.295,0.242,0.35,0.223,0.318,0.24
847,0.084,0.041,0.014,0.06,0.087,0.121,0.316,0.326,0.179,0.295,0.242,0.349,0.224,0.316,0.24
848,0.091,0.046,0.023,0.066,0.092,0.123,0.319,0.327,0.185,0.299,0.247,0.354,0.228,0.323,0.245
849,0.08,0.037,0.011,0.057,0.083,0.117,0.31,0.321,0.175,0.29,0.237,0.344,0.221,0.312,0.236
850,0.093,0.049,0.024,0.067,0.093,0.124,0.319,0.327,0.185,0.3,0.248,0.354,0.229,0.323,0.246
851,0.078,0.035,0.012,0.055,0.081,0.113,0.306,0.317,0.173,0.287,0.235,0.341,0.219,0.311,0.235
852,0.092,0.048,0.022,0.065,0.091,0.125,0.317,0.326,0.183,0.298,0.246,0.352,0.228,0.32,0.245
853,0.082,0.038,0.017,0.058,0.083,0.114,0.306,0.317,0.175,0.289,0.237,0.343,0.221,0.313,0.237
854,0.086,0.044,0.017,0.062,0.087,0.121,0.312,0.321,0.178,0.293,0.241,0.346,0.226,0.315,0.241
855,0.087,0.043,0.023,0.062,0.087,0.117,0.308,0.318,0.178,0.291,0.241,0.346,0.224,0.317,0.241
856,0.082,0.04,0.014,0.058,0.083,0.116,0.305,0.316,0.174,0.288,0.236,0.34,0.222,0.312,0.237
857,0.091,0.048,0.025,0.065,0.091,0.121,0.311,0.319,0.181,0.295,0.244,0.348,0.228,0.32,0.244
858,0.076,0.034,0.011,0.053,0.078,0.109,0.297,0.309,0.168,0.281,0.231,0.334,0.218,0.307,0.232
859,0.092,0.048,0.022,0.065,0.09,0.122,0.31,0.318,0.18,0.293,0.243,0.346,0.229,0.318,0.245
860,0.078,0.035,0.015,0.054,0.079,0.108,0.296,0.307,0.169,0.281,0.232,0.333,0.218,0.308,0.233
861,0.087,0.044,0.017,0.061,0.086,0.119,0.305,0.313,0.176,0.289,0.238,0.34,0.227,0.313,0.24
862,0.084,0.04,0.02,0.059,0.084,0.113,0.299,0.309,0.173,0.285,0.236,0.337,0.222,0.312,0.238
863,0.078,0.037,0.012,0.055,0.08,0.111,0.296,0.306,0.169,0.281,0.23,0.331,0.22,0.306,0.233
864,0.091,0.047,0.024,0.065,0.089,0.119,0.303,0.311,0.178,0.29,0.241,0.342,0.228,0.317,0.243
865,0.075,0.033,0.013,0.052,0.076,0.105,0.289,0.3,0.165,0.276,0.227,0.327,0.216,0.304,0.23
866,0.089,0.047,0.02,0.063,0.088,0.12,0.302,0.309,0.176,0.288,0.239,0.339,0.228,0.314,0.242
867,0.078,0.034,0.018,0.053,0.078,0.105,0.288,0.3,0.166,0.276,0.229,0.327,0.217,0.306,0.232
868,0.083,0.042,0.015,0.058,0.082,0.114,0.296,0.303,0.17,0.282,0.233,0.332,0.224,0.308,0.237
869,0.087,0.042,0.024,0.06,0.084,0.112,0.293,0.303,0.172,0.282,0.235,0.333,0.224,0.312,0.238
870,0.076,0.037,0.014,0.054,0.078,0.108,0.288,0.298,0.166,0.277,0.227,0.326,0.22,0.304,0.232
871,0.09,0.046,0.023,0.062,0.086,0.116,0.295,0.303,0.174,0.284,0.237,0.334,0.227,0.312,0.241
872,0.074,0.033,0.015,0.051,0.075,0.103,0.282,0.293,0.162,0.272,0.224,0.321,0.216,0.302,0.23
873,0.088,0.047,0.02,0.062,0.086,0.117,0.295,0.301,0.173,0.283,0.235,0.333,0.229,0.311,0.241
874,0.077,0.033,0.018,0.052,0.076,0.102,0.28,0.291,0.162,0.271,0.224,0.321,0.216,0.302,0.23
875,0.084,0.045,0.017,0.061,0.084,0.115,0.291,0.297,0.171,0.28,0.232,0.329,0.227,0.308,0.239
876,0.081,0.036,0.021,0.055,0.078,0.105,0.281,0.292,0.165,0.272,0.227,0.322,0.219,0.305,0.233
877,0.078,0.041,0.016,0.057,0.08,0.11,0.286,0.292,0.166,0.275,0.227,0.324,0.224,0.304,0.235
878,0.085,0.039,0.021,0.057,0.08,0.108,0.282,0.292,0.166,0.274,0.229,0.323,0.222,0.306,0.235
879,0.075,0.037,0.016,0.054,0.077,0.106,0.281,0.289,0.163,0.272,0.224,0.319,0.22,0.302,0.232
880,0.087,0.043,0.02,0.059,0.082,0.111,0.284,0.292,0.168,0.275,0.23,0.324,0.225,0.306,0.237
881,0.074,0.033,0.018,0.051,0.075,0.1,0.275,0.285,0.16,0.267,0.221,0.315,0.217,0.3,0.23
882,0.086,0.046,0.018,0.06,0.083,0.112,0.285,0.291,0.169,0.276,0.23,0.324,0.228,0.306,0.238
883,0.076,0.032,0.02,0.051,0.074,0.098,0.271,0.282,0.159,0.265,0.22,0.313,0.216,0.299,0.229
884,0.083,0.045,0.017,0.059,0.082,0.111,0.282,0.288,0.167,0.275,0.228,0.322,0.227,0.305,0.238
885,0.079,0.032,0.019,0.051,0.074,0.098,0.269,0.28,0.158,0.264,0.22,0.312,0.216,0.299,0.229
886,0.08,0.044,0.018,0.058,0.081,0.109,0.28,0.284,0.165,0.273,0.225,0.319,0.226,0.303,0.237
887,0.082,0.034,0.018,0.052,0.075,0.1,0.269,0.28,0.158,0.264,0.22,0.312,0.218,0.299,0.23
888,0.078,0.042,0.02,0.057,0.08,0.107,0.277,0.282,0.163,0.27,0.224,0.317,0.224,0.302,0.235
889,0.084,0.037,0.017,0.054,0.077,0.102,0.269,0.279,0.16,0.264,0.222,0.312,0.22,0.299,0.232
890,0.076,0.039,0.022,0.055,0.078,0.104,0.273,0.279,0.161,0.268,0.222,0.313,0.222,0.3,0.234
891,0.084,0.038,0.016,0.054,0.076,0.102,0.268,0.278,0.16,0.264,0.221,0.311,0.222,0.299,0.232
892,0.076,0.038,0.022,0.055,0.078,0.103,0.27,0.277,0.16,0.267,0.221,0.312,0.222,0.3,0.234
893,0.082,0.038,0.015,0.053,0.075,0.101,0.265,0.276,0.158,0.262,0.22,0.309,0.221,0.297,0.232
894,0.076,0.038,0.023,0.055,0.077,0.102,0.268,0.275,0.159,0.265,0.22,0.31,0.222,0.299,0.233
895,0.081,0.038,0.013,0.052,0.074,0.1,0.263,0.274,0.156,0.26,0.218,0.307,0.22,0.296,0.231
896,0.077,0.038,0.025,0.056,0.077,0.102,0.268,0.274,0.159,0.265,0.22,0.31,0.223,0.3,0.234
897,0.08,0.038,0.012,0.052,0.074,0.099,0.262,0.272,0.156,0.259,0.217,0.305,0.221,0.295,0.231
898,0.078,0.037,0.026,0.056,0.077,0.101,0.266,0.272,0.158,0.263,0.219,0.308,0.223,0.299,0.234
899,0.079,0.037,0.012,0.051,0.073,0.098,0.259,0.27,0.154,0.258,0.216,0.303,0.22,0.294,0.23
900,0.078,0.037,0.026,0.056,0.077,0.1,0.264,0.27,0.158,0.262,0.219,0.307,0.223,0.299,0.234
901,0.077,0.039,0.011,0.051,0.073,0.099,0.258,0.268,0.154,0.257,0.215,0.302,0.221,0.293,0.231
902,0.079,0.035,0.026,0.055,0.076,0.098,0.261,0.268,0.156,0.26,0.217,0.305,0.222,0.298,0.233
903,0.076,0.041,0.011,0.052,0.074,0.099,0.257,0.267,0.154,0.258,0.215,0.301,0.222,0.293,0.231
904,0.08,0.035,0.027,0.055,0.075,0.097,0.259,0.266,0.156,0.258,0.217,0.303,0.222,0.297,0.234
905,0.075,0.04,0.012,0.052,0.073,0.098,0.255,0.265,0.153,0.256,0.214,0.3,0.222,0.292,0.231
906,0.08,0.032,0.025,0.053,0.073,0.095,0.255,0.262,0.153,0.254,0.214,0.3,0.221,0.295,0.232
907,0.075,0.042,0.014,0.054,0.074,0.099,0.255,0.265,0.154,0.257,0.214,0.3,0.223,0.293,0.233
908,0.081,0.032,0.023,0.052,0.073,0.094,0.253,0.261,0.152,0.253,0.213,0.298,0.22,0.294,0.232
909,0.076,0.044,0.019,0.056,0.077,0.102,0.257,0.265,0.156,0.26,0.216,0.301,0.226,0.295,0.235
910,0.079,0.03,0.02,0.049,0.07,0.091,0.249,0.257,0.149,0.249,0.21,0.294,0.219,0.292,0.23
911,0.074,0.043,0.02,0.055,0.076,0.1,0.255,0.263,0.155,0.258,0.215,0.299,0.226,0.294,0.235
912,0.078,0.03,0.017,0.049,0.07,0.09,0.246,0.255,0.148,0.247,0.209,0.292,0.219,0.29,0.229
913,0.075,0.043,0.023,0.057,0.077,0.101,0.254,0.262,0.155,0.258,0.215,0.299,0.227,0.295,0.236
914,0.076,0.029,0.014,0.047,0.067,0.088,0.242,0.252,0.145,0.244,0.206,0.289,0.217,0.288,0.227
915,0.076,0.044,0.025,0.058,0.078,0.101,0.254,0.261,0.156,0.259,0.215,0.299,0.228,0.296,0.238
916,0.075,0.03,0.013,0.047,0.067,0.088,0.24,0.25,0.145,0.244,0.206,0.288,0.217,0.287,0.228
917,0.078,0.044,0.028,0.06,0.079,0.102,0.254,0.261,0.156,0.259,0.216,0.299,0.23,0.297,0.239
918,0.073,0.028,0.011,0.045,0.065,0.085,0.237,0.247,0.142,0.241,0.203,0.285,0.216,0.284,0.226
919,0.077,0.042,0.026,0.058,0.077,0.1,0.251,0.258,0.154,0.257,0.214,0.296,0.229,0.294,0.237
920,0.074,0.029,0.011,0.046,0.066,0.085,0.236,0.246,0.143,0.241,0.203,0.284,0.217,0.285,0.227
921,0.077,0.043,0.027,0.058,0.078,0.1,0.249,0.257,0.154,0.256,0.213,0.295,0.229,0.294,0.238
922,0.074,0.029,0.013,0.046,0.066,0.085,0.236,0.244,0.142,0.24,0.203,0.284,0.218,0.285,0.227
923,0.076,0.041,0.025,0.057,0.076,0.098,0.246,0.255,0.152,0.253,0.211,0.292,0.228,0.293,0.237
924,0.07,0.028,0.01,0.044,0.064,0.083,0.231,0.242,0.14,0.237,0.2,0.28,0.216,0.282,0.225
925,0.078,0.042,0.028,0.059,0.077,0.1,0.247,0.255,0.154,0.254,0.212,0.293,0.23,0.294,0.238
926,0.069,0.028,0.009,0.043,0.063,0.082,0.23,0.24,0.139,0.236,0.199,0.279,0.216,0.281,0.225
927,0.077,0.041,0.027,0.058,0.076,0.098,0.244,0.253,0.152,0.252,0.211,0.291,0.229,0.292,0.238
928,0.072,0.03,0.012,0.046,0.066,0.084,0.231,0.24,0.14,0.237,0.201,0.28,0.219,0.283,0.228
929,0.077,0.042,0.027,0.058,0.077,0.098,0.243,0.252,0.152,0.251,0.21,0.29,0.231,0.292,0.238
930,0.073,0.03,0.013,0.047,0.067,0.083,0.23,0.238,0.141,0.236,0.2,0.279,0.22,0.284,0.229
931,0.076,0.041,0.026,0.057,0.076,0.097,0.24,0.25,0.15,0.249,0.209,0.287,0.23,0.29,0.237
932,0.073,0.029,0.015,0.047,0.066,0.083,0.23,0.237,0.14,0.235,0.2,0.279,0.221,0.284,0.229
933,0.073,0.04,0.023,0.055,0.073,0.095,0.236,0.248,0.147,0.246,0.206,0.284,0.228,0.288,0.235
934,0.077,0.031,0.02,0.051,0.069,0.086,0.233,0.238,0.143,0.237,0.203,0.281,0.223,0.287,0.233
935,0.065,0.036,0.014,0.048,0.067,0.088,0.226,0.241,0.14,0.24,0.199,0.276,0.223,0.281,0.229
936,0.082,0.034,0.026,0.055,0.073,0.09,0.237,0.241,0.147,0.241,0.206,0.284,0.228,0.291,0.238
937,0.062,0.033,0.009,0.044,0.064,0.084,0.221,0.236,0.137,0.235,0.196,0.272,0.22,0.278,0.227
938,0.085,0.037,0.032,0.06,0.077,0.095,0.24,0.244,0.15,0.245,0.209,0.287,0.233,0.294,0.241
939,0.06,0.03,0.005,0.041,0.061,0.079,0.217,0.231,0.133,0.231,0.193,0.269,0.218,0.275,0.224
940,0.084,0.038,0.033,0.061,0.078,0.096,0.239,0.245,0.15,0.245,0.209,0.286,0.234,0.293,0.242
941,0.06,0.028,0.005,0.04,0.06,0.076,0.215,0.227,0.132,0.227,0.191,0.267,0.217,0.275,0.224
942,0.08,0.039,0.03,0.059,0.076,0.096,0.236,0.243,0.148,0.244,0.207,0.283,0.234,0.29,0.241
943,0.064,0.029,0.009,0.042,0.062,0.077,0.217,0.226,0.134,0.228,0.193,0.269,0.22,0.277,0.227
944,0.077,0.038,0.027,0.057,0.074,0.094,0.231,0.241,0.146,0.242,0.204,0.279,0.232,0.287,0.239
945,0.068,0.029,0.013,0.045,0.064,0.078,0.219,0.226,0.135,0.228,0.195,0.271,0.222,0.28,0.23
946,0.071,0.036,0.022,0.053,0.071,0.09,0.225,0.237,0.142,0.238,0.2,0.275,0.229,0.283,0.235
947,0.073,0.032,0.019,0.05,0.069,0.082,0.224,0.229,0.14,0.232,0.199,0.275,0.227,0.285,0.235
948,0.067,0.033,0.017,0.049,0.067,0.086,0.219,0.232,0.138,0.234,0.196,0.27,0.226,0.278,0.232
949,0.076,0.032,0.023,0.053,0.071,0.083,0.225,0.23,0.141,0.233,0.2,0.275,0.229,0.286,0.237
950,0.063,0.031,0.012,0.045,0.064,0.082,0.213,0.228,0.134,0.229,0.192,0.266,0.223,0.275,0.229
951,0.078,0.034,0.026,0.055,0.073,0.085,0.227,0.232,0.142,0.234,0.201,0.276,0.232,0.288,0.239
952,0.061,0.031,0.01,0.044,0.063,0.081,0.211,0.225,0.133,0.228,0.191,0.264,0.223,0.273,0.228
953,0.08,0.035,0.03,0.058,0.074,0.088,0.228,0.233,0.144,0.235,0.203,0.277,0.235,0.29,0.242
954,0.058,0.028,0.006,0.041,0.06,0.077,0.207,0.22,0.129,0.224,0.188,0.261,0.221,0.27,0.226
955,0.08,0.035,0.031,0.06,0.075,0.089,0.228,0.233,0.144,0.235,0.202,0.276,0.236,0.289,0.242
956,0.058,0.028,0.005,0.041,0.06,0.076,0.206,0.218,0.129,0.222,0.187,0.26,0.222,0.27,0.226
957,0.079,0.035,0.031,0.059,0.074,0.089,0.225,0.233,0.143,0.234,0.201,0.273,0.236,0.288,0.242
958,0.06,0.028,0.006,0.041,0.061,0.074,0.205,0.216,0.129,0.221,0.188,0.261,0.224,0.272,0.228
959,0.076,0.035,0.029,0.058,0.073,0.09,0.222,0.232,0.142,0.233,0.199,0.271,0.236,0.285,0.241
960,0.064,0.029,0.011,0.044,0.064,0.075,0.208,0.217,0.131,0.222,0.19,0.263,0.227,0.275,0.231
961,0.069,0.031,0.022,0.053,0.068,0.085,0.214,0.225,0.136,0.228,0.193,0.265,0.232,0.278,0.235
962,0.071,0.032,0.019,0.051,0.069,0.079,0.215,0.222,0.136,0.226,0.195,0.267,0.233,0.282,0.237
963,0.063,0.031,0.014,0.048,0.065,0.083,0.207,0.22,0.132,0.224,0.189,0.26,0.229,0.272,0.231
964,0.077,0.033,0.027,0.056,0.073,0.082,0.219,0.225,0.139,0.228,0.198,0.269,0.237,0.287,0.242
965,0.058,0.028,0.008,0.043,0.061,0.078,0.202,0.214,0.128,0.22,0.185,0.257,0.226,0.268,0.229
966,0.078,0.034,0.03,0.058,0.073,0.084,0.219,0.227,0.14,0.229,0.198,0.269,0.239,0.287,0.243
967,0.057,0.028,0.005,0.041,0.06,0.076,0.199,0.211,0.127,0.218,0.184,0.256,0.226,0.267,0.228
968,0.078,0.033,0.032,0.059,0.073,0.084,0.218,0.226,0.139,0.229,0.197,0.267,0.239,0.286,0.243
969,0.06,0.029,0.007,0.043,0.063,0.075,0.201,0.211,0.128,0.218,0.187,0.258,0.229,0.27,0.231
970,0.072,0.031,0.028,0.056,0.07,0.083,0.212,0.222,0.136,0.225,0.193,0.263,0.237,0.281,0.239
971,0.066,0.031,0.013,0.047,0.067,0.077,0.206,0.214,0.132,0.221,0.191,0.261,0.233,0.276,0.236
972,0.065,0.029,0.021,0.051,0.065,0.082,0.205,0.216,0.131,0.221,0.187,0.258,0.233,0.274,0.234
973,0.073,0.033,0.022,0.053,0.071,0.079,0.212,0.219,0.136,0.224,0.195,0.264,0.239,0.283,0.242
974,0.058,0.027,0.012,0.045,0.061,0.078,0.198,0.209,0.127,0.217,0.183,0.253,0.23,0.267,0.23
975,0.078,0.032,0.03,0.058,0.073,0.08,0.215,0.223,0.138,0.225,0.197,0.265,0.242,0.287,0.245
976,0.056,0.028,0.005,0.042,0.061,0.076,0.195,0.206,0.126,0.215,0.183,0.253,0.23,0.265,0.231
977,0.074,0.03,0.032,0.057,0.07,0.081,0.21,0.219,0.135,0.223,0.192,0.26,0.24,0.283,0.241
978,0.064,0.032,0.01,0.048,0.067,0.077,0.202,0.211,0.131,0.219,0.19,0.258,0.236,0.274,0.238
979,0.063,0.027,0.021,0.051,0.063,0.079,0.199,0.211,0.128,0.217,0.184,0.253,0.235,0.272,0.235
980,0.075,0.033,0.023,0.056,0.073,0.079,0.21,0.219,0.136,0.222,0.195,0.263,0.243,0.283,0.245
981,0.055,0.027,0.009,0.044,0.06,0.076,0.193,0.203,0.124,0.213,0.18,0.25,0.232,0.265,0.231
982,0.078,0.031,0.032,0.059,0.073,0.079,0.211,0.22,0.137,0.223,0.195,0.261,0.245,0.286,0.246
983,0.056,0.03,0.005,0.044,0.063,0.076,0.195,0.204,0.126,0.214,0.184,0.253,0.234,0.267,0.235
984,0.07,0.027,0.029,0.054,0.066,0.077,0.202,0.212,0.13,0.217,0.187,0.254,0.24,0.278,0.239
985,0.068,0.033,0.014,0.052,0.071,0.079,0.204,0.213,0.133,0.219,0.192,0.259,0.242,0.277,0.243
986,0.059,0.024,0.018,0.047,0.061,0.075,0.192,0.203,0.124,0.211,0.179,0.248,0.235,0.267,0.232
987,0.076,0.033,0.024,0.057,0.075,0.079,0.209,0.218,0.137,0.221,0.196,0.261,0.247,0.284,0.248
988,0.053,0.026,0.008,0.043,0.06,0.075,0.189,0.198,0.122,0.21,0.178,0.247,0.234,0.263,0.231
989,0.076,0.028,0.031,0.057,0.071,0.077,0.205,0.215,0.134,0.219,0.192,0.256,0.245,0.283,0.245
990,0.055,0.03,0.006,0.046,0.064,0.076,0.192,0.202,0.126,0.212,0.183,0.251,0.238,0.266,0.237
991,0.069,0.024,0.029,0.053,0.065,0.074,0.197,0.207,0.128,0.213,0.185,0.25,0.242,0.276,0.239
992,0.065,0.034,0.012,0.052,0.071,0.08,0.201,0.21,0.132,0.217,0.19,0.256,0.246,0.274,0.245
993,0.059,0.021,0.021,0.047,0.059,0.071,0.188,0.197,0.121,0.208,0.177,0.244,0.237,0.267,0.233
994,0.074,0.034,0.021,0.058,0.075,0.08,0.206,0.216,0.136,0.219,0.195,0.258,0.25,0.282,0.251
995,0.052,0.024,0.012,0.044,0.058,0.073,0.184,0.193,0.119,0.206,0.175,0.243,0.237,0.262,0.232
996,0.077,0.029,0.029,0.059,0.073,0.077,0.203,0.214,0.134,0.217,0.192,0.255,0.25,0.283,0.249
997,0.054,0.031,0.009,0.047,0.064,0.077,0.19,0.198,0.124,0.21,0.181,0.249,0.243,0.265,0.238
998,0.072,0.023,0.03,0.055,0.067,0.072,0.195,0.205,0.128,0.212,0.185,0.249,0.245,0.278,0.242
999,0.063,0.036,0.011,0.054,0.072,0.081,0.199,0.208,0.132,0.215,0.19,0.255,0.25,0.273,0.248
1000,0.048,0.018,0.015,0.04,0.052,0.067,0.174,0.183,0.113,0.2,0.167,0.236,0.234,0.257,0.226
